 Table IV NASA Rotor 37 Blade Geometry
 Z and R are in centimeters

 SURFACE NUMBER     1 FROM THE HUB - hub/blade intersection.
    J      Z           R         THETA 1     THETA 2
    1   0.0281091  17.7903728  -0.1165276  -0.1165276
    2   0.0289117  17.7905216  -0.1161689  -0.1168866
    3   0.0298336  17.7906990  -0.1160065  -0.1170487
    4   0.0308953  17.7908974  -0.1158726  -0.1171829
    5   0.0321196  17.7911320  -0.1157486  -0.1173033
    6   0.0335267  17.7913952  -0.1156104  -0.1174153
    7   0.0351471  17.7917061  -0.1154515  -0.1175208
    8   0.0370063  17.7920628  -0.1152689  -0.1176199
    9   0.0391449  17.7924671  -0.1150593  -0.1177117
   10   0.0415985  17.7929344  -0.1148190  -0.1177949
   11   0.0444127  17.7934761  -0.1145432  -0.1178658
   12   0.0476459  17.7940960  -0.1142269  -0.1179202
   13   0.0513517  17.7948093  -0.1138642  -0.1179506
   14   0.0555958  17.7956276  -0.1134493  -0.1179463
   15   0.0604470  17.7965679  -0.1129756  -0.1178892
   16   0.0659739  17.7976418  -0.1124368  -0.1177464
   17   0.0722525  17.7988720  -0.1118254  -0.1174441
   18   0.0793617  17.8002663  -0.1111343  -0.1170339
   19   0.0873903  17.8018570  -0.1103558  -0.1165713
   20   0.0964298  17.8036613  -0.1094812  -0.1160503
   21   0.1065792  17.8057041  -0.1085022  -0.1154656
   22   0.1179478  17.8080196  -0.1074097  -0.1148112
   23   0.1306549  17.8106308  -0.1061939  -0.1140800
   24   0.1440579  17.8134193  -0.1049179  -0.1133096
   25   0.1589214  17.8165512  -0.1035108  -0.1124559
   26   0.1753774  17.8200626  -0.1019629  -0.1115117
   27   0.1935733  17.8239975  -0.1002646  -0.1104691
   28   0.2136664  17.8284073  -0.0984057  -0.1093191
   29   0.2358321  17.8333397  -0.0963760  -0.1080531
   30   0.2602583  17.8388596  -0.0941642  -0.1066602
   31   0.2886035  17.8453712  -0.0916304  -0.1050471
   32   0.3199688  17.8526955  -0.0888667  -0.1032662
   33   0.3546993  17.8609428  -0.0858489  -0.1012979
   34   0.3931991  17.8702374  -0.0825463  -0.0991197
   35   0.4359634  17.8807220  -0.0789183  -0.0967031
   36   0.4835941  17.8925743  -0.0749117  -0.0940131
   37   0.5367923  17.9059830  -0.0704727  -0.0910079
   38   0.5959287  17.9210377  -0.0655885  -0.0876619
   39   0.6642444  17.9385395  -0.0600255  -0.0837832
   40   0.7393873  17.9578037  -0.0540321  -0.0794927
   41   0.8220686  17.9789143  -0.0476555  -0.0747411
   42   0.9130274  18.0020809  -0.0410417  -0.0694808
   43   1.0130689  18.0276260  -0.0342713  -0.0636911
   44   1.1230490  18.0559845  -0.0269743  -0.0574633
   45   1.2438898  18.0877075  -0.0186147  -0.0508899
   46   1.3765615  18.1235409  -0.0095183  -0.0436032
   47   1.5221611  18.1642075  -0.0003641  -0.0352231
   48   1.6821645  18.2094898   0.0084433  -0.0259755
   49   1.8584132  18.2584286   0.0171298  -0.0163654
   50   2.0531344  18.3090954   0.0260697  -0.0064576
   51   2.2489705  18.3552608   0.0341808   0.0031048
   52   2.4455564  18.3981400   0.0412808   0.0121697
   53   2.6245887  18.4356232   0.0472408   0.0200153
   54   2.7874165  18.4693661   0.0520404   0.0267554
   55   2.9355154  18.4996891   0.0560518   0.0325233
   56   3.0702701  18.5266685   0.0594521   0.0375637
   57   3.1929111  18.5504856   0.0622950   0.0420569
   58   3.3045526  18.5713692   0.0646694   0.0460216
   59   3.4061687  18.5896626   0.0666516   0.0494968
   60   3.4986439  18.6057625   0.0683033   0.0525496
   61   3.5827780  18.6200142   0.0696841   0.0552402
   62   3.6593077  18.6326904   0.0708505   0.0576209
   63   3.7289159  18.6440144   0.0718462   0.0597355
   64   3.7891700  18.6536713   0.0726610   0.0615276
   65   3.8433540  18.6622581   0.0733563   0.0631081
   66   3.8918405  18.6698780   0.0739488   0.0644971
   67   3.9353437  18.6766663   0.0744560   0.0657222
   68   3.9744811  18.6827450   0.0748914   0.0668066
   69   4.0097580  18.6882038   0.0752660   0.0677689
   70   4.0415926  18.6931095   0.0755886   0.0686246
   71   4.0703344  18.6975346   0.0758667   0.0693861
   72   4.0950856  18.7013378   0.0760960   0.0700336
   73   4.1175284  18.7047863   0.0762960   0.0706141
   74   4.1378603  18.7079067   0.0764708   0.0711349
   75   4.1562614  18.7107334   0.0766237   0.0716020
   76   4.1728930  18.7132835   0.0767578   0.0720207
   77   4.1879067  18.7155876   0.0768758   0.0723962
   78   4.2014365  18.7176628   0.0769797   0.0727325
   79   4.2136097  18.7195320   0.0770713   0.0730338
   80   4.2251334  18.7212982   0.0771564   0.0733177
   81   4.2354202  18.7228813   0.0772310   0.0735697
   82   4.2445793  18.7242832   0.0772966   0.0737936
   83   4.2527142  18.7255344   0.0773542   0.0739920
   84   4.2599177  18.7266464   0.0774047   0.0741672
   85   4.2662797  18.7276192   0.0774488   0.0743216
   86   4.2718801  18.7284813   0.0774874   0.0744573
   87   4.2768002  18.7292404   0.0775204   0.0745764
   88   4.2811055  18.7299004   0.0775226   0.0746803
   89   4.2848668  18.7304783   0.0774922   0.0747712
   90   4.2881484  18.7309856   0.0774392   0.0748504
   91   4.2910085  18.7314262   0.0773706   0.0749222
   92   4.2934976  18.7318096   0.0772905   0.0750023
   93   4.2956691  18.7321415   0.0772019   0.0750908
   94   4.2975616  18.7324352   0.0771066   0.0751861
   95   4.2992072  18.7326908   0.0770053   0.0752875
   96   4.3006420  18.7329102   0.0768977   0.0753951
   97   4.3018894  18.7331028   0.0767818   0.0755108
   98   4.3029737  18.7332687   0.0766533   0.0756394
   99   4.3039212  18.7334156   0.0764972   0.0757955
  100   4.3047595  18.7335434   0.0761463   0.0761463
 SURFACE NUMBER     2 FROM THE HUB.
    J      Z           R         THETA 1     THETA 2
    1   0.0515031  18.4658165  -0.1128646  -0.1128646
    2   0.0522852  18.4659386  -0.1125243  -0.1132048
    3   0.0531849  18.4660854  -0.1123704  -0.1133586
    4   0.0542184  18.4662437  -0.1122431  -0.1134860
    5   0.0554125  18.4664383  -0.1121274  -0.1136007
    6   0.0567867  18.4666538  -0.1120020  -0.1137072
    7   0.0583667  18.4669075  -0.1118579  -0.1138080
    8   0.0601830  18.4671974  -0.1116923  -0.1139028
    9   0.0622686  18.4675312  -0.1115021  -0.1139911
   10   0.0646614  18.4679165  -0.1112840  -0.1140714
   11   0.0674075  18.4683590  -0.1110337  -0.1141411
   12   0.0705599  18.4688663  -0.1107467  -0.1141958
   13   0.0741773  18.4694519  -0.1104174  -0.1142290
   14   0.0783177  18.4701214  -0.1100407  -0.1142313
   15   0.0830502  18.4708939  -0.1096105  -0.1141868
   16   0.0884405  18.4717731  -0.1091208  -0.1140679
   17   0.0945675  18.4727879  -0.1085649  -0.1138109
   18   0.1015045  18.4739323  -0.1079362  -0.1134244
   19   0.1093360  18.4752388  -0.1072274  -0.1129879
   20   0.1181555  18.4767246  -0.1064306  -0.1124959
   21   0.1280598  18.4784069  -0.1055378  -0.1119432
   22   0.1391580  18.4803143  -0.1045400  -0.1113238
   23   0.1515592  18.4824696  -0.1034283  -0.1106310
   24   0.1646412  18.4847736  -0.1022596  -0.1098997
   25   0.1791533  18.4873638  -0.1009682  -0.1090876
   26   0.1952201  18.4902687  -0.0995447  -0.1081876
   27   0.2129913  18.4935303  -0.0979785  -0.1071909
   28   0.2326144  18.4971867  -0.0962593  -0.1060889
   29   0.2542641  18.5012875  -0.0943754  -0.1048711
   30   0.2781267  18.5058784  -0.0923150  -0.1035270
   31   0.3058199  18.5113010  -0.0899454  -0.1019648
   32   0.3364722  18.5174084  -0.0873502  -0.1002339
   33   0.3704193  18.5242939  -0.0845080  -0.0983169
   34   0.4080571  18.5320644  -0.0813932  -0.0961945
   35   0.4498710  18.5408401  -0.0779750  -0.0938452
   36   0.4964532  18.5507755  -0.0742152  -0.0912446
   37   0.5484892  18.5620193  -0.0700754  -0.0883598
   38   0.6063396  18.5746536  -0.0655532  -0.0851672
   39   0.6731775  18.5893497  -0.0604470  -0.0814768
   40   0.7466989  18.6055260  -0.0549853  -0.0773936
   41   0.8275870  18.6232491  -0.0491316  -0.0728800
   42   0.9165760  18.6426926  -0.0427807  -0.0679436
   43   1.0144483  18.6641426  -0.0358453  -0.0625808
   44   1.1220549  18.6879787  -0.0284136  -0.0566888
   45   1.2403207  18.7146893  -0.0206594  -0.0501228
   46   1.3702103  18.7449341  -0.0125372  -0.0428919
   47   1.5128113  18.7793484  -0.0039334  -0.0350467
   48   1.6695397  18.8177147   0.0051433  -0.0265367
   49   1.8421403  18.8591309   0.0142615  -0.0172334
   50   2.0326738  18.9018154   0.0232986  -0.0072438
   51   2.2240875  18.9404068   0.0316125   0.0023215
   52   2.4160790  18.9760170   0.0391080   0.0116186
   53   2.5908606  19.0070496   0.0455065   0.0196545
   54   2.7498033  19.0349865   0.0507455   0.0265647
   55   2.8943477  19.0600891   0.0551891   0.0326912
   56   3.0258377  19.0824070   0.0590055   0.0381239
   57   3.1454797  19.1020737   0.0622420   0.0428908
   58   3.2543514  19.1192818   0.0649859   0.0471305
   59   3.3534219  19.1343155   0.0673216   0.0509193
   60   3.4435551  19.1475220   0.0693234   0.0542779
   61   3.5255399  19.1591988   0.0710506   0.0572502
   62   3.6001074  19.1695747   0.0725506   0.0598924
   63   3.6679196  19.1788425   0.0738603   0.0622523
   64   3.7266099  19.1867428   0.0749534   0.0642658
   65   3.7793863  19.1937714   0.0759047   0.0660563
   66   3.8266096  19.2000084   0.0767311   0.0676452
   67   3.8689780  19.2055683   0.0774520   0.0690597
   68   3.9070919  19.2105541   0.0780825   0.0703210
   69   3.9414425  19.2150307   0.0786348   0.0714469
   70   3.9724412  19.2190571   0.0791188   0.0724518
   71   4.0004306  19.2226906   0.0795434   0.0733488
   72   4.0245295  19.2258167   0.0798993   0.0741128
   73   4.0463820  19.2286549   0.0802141   0.0747987
   74   4.0661812  19.2312202   0.0804930   0.0754144
   75   4.0840960  19.2335472   0.0807404   0.0759672
   76   4.1002913  19.2356491   0.0809599   0.0764632
   77   4.1149082  19.2375469   0.0811550   0.0769081
   78   4.1280842  19.2392597   0.0813283   0.0773069
   79   4.1399369  19.2408009   0.0814825   0.0776640
   80   4.1511598  19.2422581   0.0816268   0.0780007
   81   4.1611743  19.2435646   0.0817543   0.0783001
   82   4.1700926  19.2447205   0.0818671   0.0785660
   83   4.1780133  19.2457542   0.0819664   0.0788013
   84   4.1850243  19.2466736   0.0820540   0.0790096
   85   4.1912222  19.2474785   0.0821309   0.0791929
   86   4.1966734  19.2481899   0.0821984   0.0793541
   87   4.2014637  19.2488174   0.0822531   0.0794956
   88   4.2056561  19.2493629   0.0822662   0.0796192
   89   4.2093167  19.2498398   0.0822456   0.0797272
   90   4.2125120  19.2502594   0.0822023   0.0798213
   91   4.2152963  19.2506256   0.0821428   0.0799032
   92   4.2177224  19.2509422   0.0820719   0.0799770
   93   4.2198362  19.2512150   0.0819923   0.0800563
   94   4.2216787  19.2514591   0.0819062   0.0801427
   95   4.2232809  19.2516708   0.0818140   0.0802349
   96   4.2246747  19.2518501   0.0817157   0.0803332
   97   4.2258892  19.2520103   0.0816096   0.0804393
   98   4.2269468  19.2521477   0.0814914   0.0805575
   99   4.2278676  19.2522697   0.0813477   0.0807013
  100   4.2286863  19.2523746   0.0810244   0.0810244
 SURFACE NUMBER     3 FROM THE HUB.
    J      Z           R         THETA 1     THETA 2
    1   0.0957971  19.1402092  -0.1107700  -0.1107700
    2   0.0965538  19.1403027  -0.1104626  -0.1110773
    3   0.0974253  19.1404190  -0.1103239  -0.1112160
    4   0.0984312  19.1405449  -0.1102094  -0.1113305
    5   0.0995870  19.1406994  -0.1101043  -0.1114334
    6   0.1009179  19.1408691  -0.1099861  -0.1115286
    7   0.1024500  19.1410694  -0.1098502  -0.1116181
    8   0.1042107  19.1412983  -0.1096941  -0.1117020
    9   0.1062304  19.1415596  -0.1095149  -0.1117793
   10   0.1085496  19.1418591  -0.1093093  -0.1118485
   11   0.1112146  19.1422081  -0.1090733  -0.1119066
   12   0.1142709  19.1426067  -0.1088028  -0.1119496
   13   0.1177744  19.1430664  -0.1084925  -0.1119706
   14   0.1217908  19.1435966  -0.1081373  -0.1119595
   15   0.1263792  19.1442032  -0.1077321  -0.1118992
   16   0.1316077  19.1448994  -0.1072707  -0.1117565
   17   0.1375477  19.1456966  -0.1067471  -0.1114604
   18   0.1442751  19.1466007  -0.1061549  -0.1110821
   19   0.1518719  19.1476345  -0.1054876  -0.1106554
   20   0.1604289  19.1488056  -0.1047378  -0.1101751
   21   0.1700354  19.1501408  -0.1038977  -0.1096362
   22   0.1808002  19.1516533  -0.1029596  -0.1090333
   23   0.1928323  19.1533604  -0.1019148  -0.1083599
   24   0.2055252  19.1551933  -0.1008172  -0.1076505
   25   0.2196052  19.1572571  -0.0996054  -0.1068649
   26   0.2351965  19.1595726  -0.0982707  -0.1059965
   27   0.2524413  19.1621761  -0.0968038  -0.1050381
   28   0.2714879  19.1651058  -0.0951957  -0.1039821
   29   0.2925031  19.1683903  -0.0934360  -0.1028200
   30   0.3156702  19.1720753  -0.0915140  -0.1015428
   31   0.3425620  19.1764374  -0.0893065  -0.1000648
   32   0.3723292  19.1813564  -0.0868913  -0.0984344
   33   0.4053002  19.1869125  -0.0842458  -0.0966332
   34   0.4418662  19.1931934  -0.0813413  -0.0946388
   35   0.4824945  19.2003002  -0.0781399  -0.0924232
   36   0.5277618  19.2083492  -0.0745926  -0.0899506
   37   0.5783347  19.2174759  -0.0706522  -0.0871792
   38   0.6345727  19.2277431  -0.0663138  -0.0840832
   39   0.6995459  19.2396889  -0.0613898  -0.0804826
   40   0.7710183  19.2528324  -0.0561184  -0.0764928
   41   0.8496532  19.2672253  -0.0504940  -0.0720933
   42   0.9361599  19.2830124  -0.0444633  -0.0673078
   43   1.0313102  19.3004360  -0.0379653  -0.0621465
   44   1.1359355  19.3198204  -0.0309519  -0.0564927
   45   1.2509447  19.3415909  -0.0233817  -0.0501694
   46   1.3772979  19.3663177  -0.0152175  -0.0431433
   47   1.5160723  19.3945503  -0.0065011  -0.0354543
   48   1.6686256  19.4260674   0.0025364  -0.0271252
   49   1.8365889  19.4600296   0.0116817  -0.0178845
   50   2.0218673  19.4947891   0.0210882  -0.0077295
   51   2.2078145  19.5258503   0.0298323   0.0020042
   52   2.3941898  19.5542316   0.0377309   0.0114315
   53   2.5638025  19.5788307   0.0445689   0.0198123
   54   2.7180283  19.6009655   0.0501403   0.0269858
   55   2.8582678  19.6208458   0.0548433   0.0333978
   56   2.9858229  19.6384773   0.0589091   0.0390869
   57   3.1018529  19.6539764   0.0624342   0.0440398
   58   3.2074106  19.6674786   0.0655063   0.0484460
   59   3.3034425  19.6792297   0.0681812   0.0524113
   60   3.3907895  19.6895142   0.0704938   0.0559720
   61   3.4702287  19.6985855   0.0724943   0.0591641
   62   3.5424683  19.7066288   0.0742379   0.0620229
   63   3.6081550  19.7138081   0.0757679   0.0645825
   64   3.6650076  19.7199268   0.0770514   0.0667654
   65   3.7161200  19.7253666   0.0781726   0.0687018
   66   3.7618582  19.7301998   0.0791492   0.0704128
   67   3.8028886  19.7345085   0.0800036   0.0719302
   68   3.8397965  19.7383728   0.0807542   0.0732816
   69   3.8730626  19.7418499   0.0814158   0.0744888
   70   3.9030807  19.7449760   0.0819998   0.0755696
   71   3.9301829  19.7478008   0.0825166   0.0765387
   72   3.9535203  19.7502346   0.0829532   0.0773681
   73   3.9746823  19.7524433   0.0833431   0.0781164
   74   3.9938519  19.7544460   0.0836910   0.0787912
   75   4.0112004  19.7562618   0.0840019   0.0793999
   76   4.0268841  19.7579021   0.0842796   0.0799478
   77   4.0410385  19.7593842   0.0845280   0.0804412
   78   4.0537944  19.7607212   0.0847497   0.0808845
   79   4.0652714  19.7619247   0.0849478   0.0812828
   80   4.0761380  19.7630653   0.0851339   0.0816589
   81   4.0858335  19.7640896   0.0852992   0.0819941
   82   4.0944695  19.7649956   0.0854455   0.0822920
   83   4.1021380  19.7658024   0.0855749   0.0825562
   84   4.1089268  19.7665272   0.0856892   0.0827901
   85   4.1149278  19.7671566   0.0857897   0.0829965
   86   4.1202078  19.7677155   0.0858781   0.0831781
   87   4.1248426  19.7682056   0.0859464   0.0833375
   88   4.1289034  19.7686329   0.0859669   0.0834768
   89   4.1324511  19.7690086   0.0859537   0.0835986
   90   4.1355429  19.7693367   0.0859177   0.0837047
   91   4.1382408  19.7696247   0.0858658   0.0837973
   92   4.1405883  19.7698727   0.0858025   0.0838779
   93   4.1426363  19.7700882   0.0857307   0.0839511
   94   4.1444197  19.7702808   0.0856523   0.0840295
   95   4.1459723  19.7704449   0.0855680   0.0841137
   96   4.1473227  19.7705879   0.0854780   0.0842039
   97   4.1485000  19.7707138   0.0853804   0.0843013
   98   4.1495228  19.7708206   0.0852717   0.0844101
   99   4.1504145  19.7709179   0.0851393   0.0845426
  100   4.1512079  19.7709999   0.0848409   0.0848409
 SURFACE NUMBER     4 FROM THE HUB.
    J      Z           R         THETA 1     THETA 2
    1   0.1464480  19.8141594  -0.1089887  -0.1089887
    2   0.1471794  19.8142262  -0.1086988  -0.1092786
    3   0.1480230  19.8143101  -0.1085679  -0.1094097
    4   0.1489933  19.8144035  -0.1084596  -0.1095179
    5   0.1501113  19.8145161  -0.1083606  -0.1096153
    6   0.1513966  19.8146381  -0.1082517  -0.1097055
    7   0.1528781  19.8147850  -0.1081265  -0.1097905
    8   0.1545802  19.8149529  -0.1079827  -0.1098706
    9   0.1565313  19.8151436  -0.1078175  -0.1099445
   10   0.1587748  19.8153629  -0.1076281  -0.1100113
   11   0.1613486  19.8156147  -0.1074106  -0.1100682
   12   0.1643037  19.8159084  -0.1071612  -0.1101115
   13   0.1676931  19.8162460  -0.1068751  -0.1101352
   14   0.1715757  19.8166332  -0.1065476  -0.1101305
   15   0.1760099  19.8170815  -0.1061736  -0.1100824
   16   0.1810663  19.8175907  -0.1057477  -0.1099636
   17   0.1868096  19.8181801  -0.1052643  -0.1097080
   18   0.1933145  19.8188400  -0.1047173  -0.1093474
   19   0.2006637  19.8196030  -0.1041004  -0.1089400
   20   0.2089355  19.8204727  -0.1034065  -0.1084811
   21   0.2182289  19.8214569  -0.1026287  -0.1079656
   22   0.2286399  19.8225765  -0.1017591  -0.1073879
   23   0.2402781  19.8238487  -0.1007892  -0.1067417
   24   0.2525564  19.8252144  -0.0997690  -0.1060598
   25   0.2661786  19.8267536  -0.0986408  -0.1053028
   26   0.2812640  19.8284893  -0.0973957  -0.1044638
   27   0.2979479  19.8304424  -0.0960244  -0.1035352
   28   0.3163798  19.8326492  -0.0945170  -0.1025085
   29   0.3367176  19.8351250  -0.0928629  -0.1013747
   30   0.3591440  19.8379154  -0.0910505  -0.1001233
   31   0.3851763  19.8412247  -0.0889609  -0.0986692
   32   0.4140010  19.8449688  -0.0866655  -0.0970578
   33   0.4459306  19.8492069  -0.0841419  -0.0952718
   34   0.4813443  19.8540115  -0.0813623  -0.0932911
   35   0.5207014  19.8594608  -0.0782925  -0.0910925
   36   0.5645590  19.8656464  -0.0748883  -0.0886476
   37   0.6135625  19.8726711  -0.0711065  -0.0859215
   38   0.6680600  19.8805847  -0.0669408  -0.0828919
   39   0.7310300  19.8897953  -0.0622051  -0.0793841
   40   0.8003004  19.8999310  -0.0571145  -0.0755087
   41   0.8765089  19.9110222  -0.0516438  -0.0712355
   42   0.9603469  19.9231796  -0.0457164  -0.0665615
   43   1.0525665  19.9365997  -0.0392703  -0.0614640
   44   1.1539781  19.9515591  -0.0323361  -0.0558242
   45   1.2654761  19.9684124  -0.0249593  -0.0495116
   46   1.3880101  19.9876518  -0.0170390  -0.0426008
   47   1.5226430  20.0097275  -0.0085032  -0.0351122
   48   1.6706672  20.0344219   0.0005422  -0.0268149
   49   1.8336070  20.0609474   0.0098997  -0.0176916
   50   2.0132189  20.0878010   0.0195223  -0.0077181
   51   2.1933067  20.1113453   0.0283307   0.0020935
   52   2.3736947  20.1324978   0.0363551   0.0115550
   53   2.5378046  20.1506634   0.0433213   0.0198411
   54   2.6870184  20.1669884   0.0491752   0.0271346
   55   2.8226869  20.1816292   0.0541994   0.0337108
   56   2.9460657  20.1945744   0.0585631   0.0395744
   57   3.0582747  20.2058849   0.0623524   0.0447369
   58   3.1603317  20.2156677   0.0656333   0.0493166
   59   3.2531526  20.2241154   0.0684801   0.0534088
   60   3.3375666  20.2314625   0.0709651   0.0570849
   61   3.4143279  20.2379093   0.0731490   0.0603965
   62   3.4841218  20.2436123   0.0750822   0.0633830
